59.7569
56.7853
53.8093
50.6316
47.7509
44.5598
41.8009
38.503
35.6426
32.4396
29.4302
26.179
23.2466
20.2933
17.0535
13.4315
10.375
7.58361
4.6018
3.00526
0.425846
-2.94694
-5.90467
-8.52903
-11.6794
-14.7342
-17.881
-20.7717
-23.8467
-26.8491
-29.8036
-32.9163
-35.834
-38.9244
-41.8961
-44.8583
-47.7938
-50.8801
-53.822
-57.0075
-59.9835
